trajectory pos, trajectory quat, original plan pos, original plan quat, current position dev, max position dev, current orientation dev, max orientation dev
191.956 5.10884 -195.123 0.28303 -0.447205 -0.175769 0.830064 193.851 7.88889 -191.776 -0.283013 0.447225 0.175802 -0.830052 4.74612 14.7065 0.113946 0.442382 -0.789052 0.0282979 0.613675
191.535 5.08944 -194.854 0.282944 -0.447306 -0.175932 0.830005 193.43 7.86947 -191.507 -0.282927 0.447326 0.175964 -0.829993 4.74608 14.4208 0.114537 0.438948 -0.788967 0.0283765 0.61378
191.114 5.06992 -194.586 0.282858 -0.447407 -0.176094 0.829945 193.009 7.84991 -191.239 -0.28284 0.447427 0.176126 -0.829933 4.74603 14.1386 0.115476 0.434706 -0.788705 0.0286596 0.614104
190.692 5.05025 -194.317 0.282771 -0.447508 -0.176256 0.829886 192.588 7.83022 -190.97 -0.282754 0.447528 0.176289 -0.829874 4.74599 13.8597 0.116573 0.429602 -0.788362 0.0290351 0.614526
190.271 5.03046 -194.048 0.282685 -0.447609 -0.176419 0.829826 192.167 7.8104 -190.701 -0.282668 0.44763 0.176451 -0.829814 4.74595 13.5841 0.117342 0.425395 -0.788186 0.0292181 0.614743
189.85 5.01052 -193.78 0.282599 -0.44771 -0.176581 0.829767 191.746 7.79044 -190.433 -0.282581 0.447731 0.176613 -0.829755 4.7459 13.3118 0.118671 0.421202 -0.787724 0.02973 0.615311
189.428 4.99046 -193.511 0.282512 -0.447812 -0.176743 0.829707 191.324 7.77035 -190.165 -0.282495 0.447832 0.176775 -0.829695 4.74586 13.0428 0.119265 0.417062 -0.787638 0.0298099 0.615417
189.007 4.97026 -193.243 0.282426 -0.447913 -0.176905 0.829647 190.903 7.75012 -189.896 -0.282409 0.447933 0.176938 -0.829635 4.74581 12.7771 0.120892 0.411922 -0.787022 0.0304969 0.616171
188.585 4.94993 -192.975 0.28234 -0.448014 -0.177068 0.829587 190.481 7.72976 -189.628 -0.282322 0.448034 0.1771 -0.829575 4.74577 12.5146 0.121904 0.407811 -0.786721 0.0308226 0.616539
188.164 4.92946 -192.707 0.282253 -0.448115 -0.17723 0.829528 190.059 7.70926 -189.361 -0.282236 0.448135 0.177262 -0.829516 4.74573 12.2552 0.123333 0.402655 -0.786205 0.0313928 0.617168
187.742 4.90886 -192.44 0.282167 -0.448216 -0.177392 0.829468 189.637 7.68863 -189.093 -0.282149 0.448236 0.177424 -0.829456 4.74568 11.9991 0.124098 0.398601 -0.786031 0.0315735 0.617381
187.32 4.88812 -192.172 0.28208 -0.448317 -0.177554 0.829408 189.215 7.66787 -188.825 -0.282063 0.448337 0.177587 -0.829396 4.74564 11.7461 0.125855 0.393409 -0.785345 0.0323363 0.618213
186.898 4.86725 -191.905 0.281994 -0.448418 -0.177716 0.829348 188.793 7.64697 -188.558 -0.281977 0.448438 0.177749 -0.829336 4.7456 11.4962 0.126903 0.390584 -0.785024 0.032683 0.618603
186.476 4.84624 -191.637 0.281907 -0.448518 -0.177879 0.829288 188.371 7.62594 -188.291 -0.28189 0.448539 0.177911 -0.829276 4.74555 11.2495 0.127855 0.385442 -0.784752 0.0329732 0.618932
186.054 4.8251 -191.37 0.281821 -0.448619 -0.178041 0.829228 187.949 7.60478 -188.024 -0.281804 0.44864 0.178073 -0.829216 4.74551 11.0058 0.129175 0.380251 -0.78429 0.0334796 0.61949
185.631 4.80383 -191.103 0.281734 -0.44872 -0.178203 0.829168 187.527 7.58348 -187.757 -0.281717 0.44874 0.178235 -0.829156 4.74547 10.7652 0.130968 0.376335 -0.783583 0.0342634 0.620342
185.209 4.78242 -190.837 0.281648 -0.448821 -0.178365 0.829108 187.105 7.56204 -187.49 -0.281631 0.448841 0.178398 -0.829096 4.74542 10.5276 0.131937 0.371132 -0.783301 0.0345638 0.620681
184.787 4.76088 -190.57 0.281561 -0.448922 -0.178527 0.829048 186.682 7.54047 -187.223 -0.281544 0.448942 0.17856 -0.829036 4.74538 10.293 0.133405 0.367323 -0.78276 0.035157 0.62133
184.364 4.73921 -190.303 0.281475 -0.449023 -0.17869 0.828988 186.26 7.51877 -186.957 -0.281458 0.449043 0.178722 -0.828976 4.74534 6.53492 0.134769 0.362072 -0.782272 0.0356893 0.621914
183.942 4.7174 -190.037 0.281388 -0.449124 -0.178852 0.828927 185.837 7.49693 -186.691 -0.281371 0.449144 0.178884 -0.828915 4.74529 6.48593 0.135866 0.358397 -0.781922 0.0360649 0.622332
183.942 4.7174 -190.037 0.281388 -0.449124 -0.178852 0.828927 185.837 7.49693 -186.691 -0.281371 0.449144 0.178884 -0.828915 4.74529 6.48593 0.135866 0.358397 -0.781922 0.0360649 0.622332
183.519 4.69545 -189.771 0.281302 -0.449224 -0.179014 0.828867 185.414 7.47496 -186.424 -0.281285 0.449245 0.179046 -0.828855 4.74525 6.43949 0.137804 0.353085 -0.781135 0.0369332 0.623269
183.096 4.67337 -189.505 0.281215 -0.449325 -0.179176 0.828807 184.992 7.45286 -186.158 -0.281198 0.449345 0.179208 -0.828795 4.7452 6.39557 0.138663 0.347766 -0.780908 0.0371692 0.623539
182.673 4.65116 -189.239 0.281129 -0.449426 -0.179338 0.828747 184.569 7.43062 -185.892 -0.281111 0.449446 0.17937 -0.828735 4.74516 6.35418 0.141358 0.342269 -0.779721 0.0384821 0.624943
182.251 4.62882 -188.973 0.281042 -0.449527 -0.1795 0.828686 184.146 7.40825 -185.627 -0.281025 0.449547 0.179533 -0.828674 4.74512 6.31531 0.141912 0.338847 -0.779654 0.038539 0.625024
181.828 4.60634 -188.707 0.280955 -0.449627 -0.179662 0.828626 183.723 7.38574 -185.361 -0.280938 0.449647 0.179695 -0.828614 4.74507 6.27896 0.143898 0.33333 -0.778835 0.0394357 0.625987
181.404 4.58372 -188.442 0.280869 -0.449728 -0.179824 0.828565 183.3 7.3631 -185.096 -0.280852 0.449748 0.179857 -0.828553 4.74503 6.24514 0.145292 0.32538 -0.778327 0.039985 0.626585
180.981 4.56097 -188.177 0.280782 -0.449829 -0.179986 0.828505 182.877 7.34032 -184.83 -0.280765 0.449849 0.180019 -0.828493 4.74499 6.21383 0.14711 0.321973 -0.777594 0.040783 0.627443
180.558 4.53809 -187.911 0.280696 -0.449929 -0.180149 0.828444 182.453 7.31741 -184.565 -0.280678 0.449949 0.180181 -0.828432 4.74494 6.18503 0.14821 0.316078 -0.777238 0.0411597 0.627858
180.135 4.51507 -187.646 0.280609 -0.45003 -0.180311 0.828384 182.03 7.29437 -184.3 -0.280592 0.45005 0.180343 -0.828372 4.7449 6.15874 0.151343 0.312872 -0.775807 0.0427294 0.629522
179.711 4.49192 -187.381 0.280522 -0.45013 -0.180473 0.828323 181.606 7.27119 -184.035 -0.280505 0.450151 0.180505 -0.828311 4.74486 6.13497 0.153035 0.30334 -0.775136 0.0434532 0.630298
179.288 4.46864 -187.117 0.280436 -0.450231 -0.180635 0.828263 181.183 7.24788 -183.771 -0.280418 0.450251 0.180667 -0.828251 4.74481 6.1137 0.154601 0.300262 -0.774531 0.044103 0.630997
178.864 4.44522 -186.852 0.280349 -0.450332 -0.180797 0.828202 180.759 7.22443 -183.506 -0.280332 0.450352 0.180829 -0.82819 4.74477 6.09493 0.156017 0.293317 -0.774004 0.0446653 0.631603
178.44 4.42166 -186.588 0.280262 -0.450432 -0.180959 0.828141 180.336 7.20085 -183.242 -0.280245 0.450452 0.180991 -0.828129 4.74472 6.07867 0.158521 0.28557 -0.772897 0.0458648 0.632872
178.017 4.39798 -186.323 0.280175 -0.450533 -0.181121 0.828081 179.912 7.17714 -182.977 -0.280158 0.450553 0.181153 -0.828068 4.74468 6.06492 0.159611 0.282852 -0.772542 0.0462358 0.633278
177.593 4.37415 -186.059 0.280089 -0.450633 -0.181283 0.82802 179.488 7.15329 -182.713 -0.280071 0.450653 0.181315 -0.828008 4.74464 6.05367 0.160313 0.273565 -0.772394 0.046379 0.633448
177.169 4.3502 -185.795 0.280002 -0.450733 -0.181445 0.827959 179.064 7.12931 -182.449 -0.279985 0.450754 0.181477 -0.827947 4.74459 6.04491 0.164837 0.270269 -0.770197 0.0487624 0.635939
176.745 4.32611 -185.531 0.279915 -0.450834 -0.181607 0.827898 178.64 7.10519 -182.185 -0.279898 0.450854 0.181639 -0.827886 4.74455 6.03866 0.17262 0.254376 -0.766221 0.0530536 0.640384
176.321 4.30188 -185.268 0.279828 -0.450934 -0.181769 0.827837 178.216 7.08094 -181.922 -0.279811 0.450954 0.181801 -0.827825 4.74451 6.03491 0.163502 0.221231 -0.771371 0.047444 0.634614
175.896 4.27753 -185.004 0.279742 -0.451035 -0.181931 0.827776 177.792 7.05655 -181.658 -0.279724 0.451055 0.181963 -0.827764 4.74446 6.03366 0 0 -0.848533 -0.0489035 0.526878
175.472 4.25303 -184.741 0.279655 -0.451135 -0.182093 0.827715 177.367 7.03204 -181.395 -0.279637 0.451155 0.182125 -0.827703 4.74442 7.73354 0.175429 0.250631 -0.765388 0.0538952 0.641309
175.048 4.22841 -184.478 0.279568 -0.451235 -0.182255 0.827654 176.943 7.00738 -181.132 -0.279551 0.451256 0.182287 -0.827642 4.74438 7.5374 0.178234 0.244029 -0.764091 0.0552696 0.642737
174.623 4.20365 -184.214 0.279481 -0.451336 -0.182417 0.827593 176.518 6.9826 -180.869 -0.279464 0.451356 0.182449 -0.827581 4.74433 7.34403 0.181619 0.236893 -0.762471 0.0569826 0.644508
174.199 4.17875 -183.952 0.279394 -0.451436 -0.182579 0.827532 176.094 6.95768 -180.606 -0.279377 0.451456 0.182611 -0.82752 4.74429 7.15342 0.184296 0.230129 -0.761234 0.0582819 0.645852
173.774 4.15373 -183.689 0.279307 -0.451536 -0.182741 0.827471 175.669 6.93262 -180.343 -0.27929 0.451556 0.182773 -0.827459 4.74425 6.96556 0.187562 0.222787 -0.759669 0.0599249 0.647543
173.349 4.12856 -183.426 0.279221 -0.451637 -0.182903 0.82741 175.244 6.90743 -180.08 -0.279203 0.451657 0.182935 -0.827398 4.7442 6.78043 0.190778 0.215321 -0.758125 0.0615379 0.649199
172.925 4.10327 -183.164 0.279134 -0.451737 -0.183065 0.827349 174.82 6.88211 -179.818 -0.279116 0.451757 0.183097 -0.827336 4.74416 6.59801 0.194604 0.207176 -0.756236 0.0635075 0.65121
172.5 4.07784 -182.901 0.279047 -0.451837 -0.183227 0.827287 174.395 6.85665 -179.556 -0.279029 0.451857 0.183259 -0.827275 4.74411 6.4183 0.198405 0.198832 -0.754352 0.0654618 0.653199
172.075 4.05227 -182.639 0.27896 -0.451937 -0.183388 0.827226 173.97 6.83106 -179.293 -0.278942 0.451957 0.183421 -0.827214 4.74407 6.24128 0.202866 0.189655 -0.752088 0.0678006 0.655566
171.65 4.02657 -182.377 0.278873 -0.452037 -0.18355 0.827165 173.545 6.80533 -179.031 -0.278856 0.452057 0.183583 -0.827152 4.74403 6.06694 0.20667 0.180801 -0.750183 0.069755 0.657541
171.225 4.00074 -182.115 0.278786 -0.452138 -0.183712 0.827103 173.119 6.77948 -178.769 -0.278769 0.452158 0.183745 -0.827091 4.74398 5.89527 0.211898 0.170267 -0.747461 0.0725395 0.660334
170.799 3.97478 -181.853 0.278699 -0.452238 -0.183874 0.827042 172.694 6.75348 -178.508 -0.278682 0.452258 0.183906 -0.82703 4.74394 5.72625 0.217258 0.159173 -0.744646 0.0753993 0.663187
170.374 3.94868 -181.592 0.278612 -0.452338 -0.184036 0.82698 172.269 6.72736 -178.246 -0.278595 0.452358 0.184068 -0.826968 4.7439 5.55988 0.222817 0.14739 -0.741698 0.0783736 0.666139
169.949 3.92244 -181.33 0.278525 -0.452438 -0.184198 0.826919 171.844 6.70109 -177.985 -0.278508 0.452458 0.18423 -0.826907 4.74385 5.39613 0.229473 0.133787 -0.738094 0.081984 0.669698
169.523 3.89607 -181.069 0.278438 -0.452538 -0.18436 0.826857 171.418 6.6747 -177.724 -0.278421 0.452558 0.184392 -0.826845 4.74381 5.235 0.237574 0.117623 -0.733615 0.0864321 0.674046
169.098 3.86957 -180.808 0.278351 -0.452638 -0.184522 0.826796 170.992 6.64817 -177.462 -0.278334 0.452658 0.184554 -0.826783 4.74377 5.07649 0.246837 0.0987993 -0.728404 0.0915504 0.679003
168.672 3.84293 -180.547 0.278264 -0.452738 -0.184683 0.826734 170.567 6.62151 -177.201 -0.278247 0.452758 0.184716 -0.826722 4.74372 4.92057 0.259645 0.073169 -0.721008 0.0987169 0.685859
168.246 3.81616 -180.286 0.278177 -0.452838 -0.184845 0.826673 170.141 6.59471 -176.941 -0.27816 0.452858 0.184878 -0.82666 4.74368 4.76723 0.282668 0.0267547 -0.707225 0.111771 0.698097
167.82 3.78926 -180.025 0.27809 -0.452938 -0.185007 0.826611 169.715 6.56778 -176.68 -0.278073 0.452958 0.185039 -0.826598 4.74364 4.61647 0 0 -0.851738 -0.0539962 0.521179
167.395 3.76222 -179.765 0.278003 -0.453038 -0.185169 0.826549 169.289 6.54071 -176.419 -0.277985 0.453058 0.185201 -0.826537 4.74359 4.46828 0 0 -0.851905 -0.0542641 0.520878
166.969 3.73505 -179.504 0.277916 -0.453138 -0.185331 0.826487 168.863 6.51351 -176.159 -0.277898 0.453158 0.185363 -0.826475 4.74355 4.32265 0 0 -0.852072 -0.054532 0.520577
166.542 3.70774 -179.244 0.277829 -0.453238 -0.185492 0.826426 168.437 6.48618 -175.899 -0.277811 0.453258 0.185525 -0.826413 4.7435 4.17956 0 0 -0.852238 -0.0548 0.520276
166.116 3.6803 -178.984 0.277742 -0.453338 -0.185654 0.826364 168.011 6.45871 -175.639 -0.277724 0.453358 0.185687 -0.826351 4.74346 4.03901 0 0 -0.852405 -0.0550679 0.519974
165.69 3.65273 -178.724 0.277655 -0.453438 -0.185816 0.826302 167.585 6.43111 -175.379 -0.277637 0.453458 0.185848 -0.826289 4.74342 3.90098 0 0 -0.852571 -0.0553358 0.519673
165.264 3.62502 -178.464 0.277567 -0.453538 -0.185978 0.82624 167.158 6.40338 -175.119 -0.27755 0.453558 0.18601 -0.826227 4.74337 3.76548 0 0 -0.852738 -0.0556036 0.519372
164.837 3.59718 -178.205 0.27748 -0.453637 -0.18614 0.826178 166.732 6.37551 -174.86 -0.277463 0.453657 0.186172 -0.826165 4.74333 3.63248 0 0 -0.852904 -0.0558715 0.51907
164.411 3.5692 -177.945 0.277393 -0.453737 -0.186301 0.826116 166.306 6.34751 -174.6 -0.277376 0.453757 0.186334 -0.826103 4.74329 3.50199 0 0 -0.85307 -0.0561394 0.518768
163.984 3.54109 -177.686 0.277306 -0.453837 -0.186463 0.826054 165.879 6.31937 -174.341 -0.277289 0.453857 0.186495 -0.826041 4.74324 3.37399 0 0 -0.853235 -0.0564072 0.518467
163.558 3.51285 -177.427 0.277219 -0.453937 -0.186625 0.825992 165.452 6.2911 -174.082 -0.277201 0.453957 0.186657 -0.825979 4.7432 3.24847 0 0 -0.853401 -0.0566751 0.518165
163.131 3.48447 -177.168 0.277132 -0.454036 -0.186787 0.82593 165.026 6.2627 -173.823 -0.277114 0.454056 0.186819 -0.825917 4.74316 3.12543 0 0 -0.853566 -0.0569429 0.517863
162.704 3.45596 -176.909 0.277044 -0.454136 -0.186948 0.825867 164.599 6.23416 -173.564 -0.277027 0.454156 0.186981 -0.825855 4.74311 3.00486 0 0 -0.853732 -0.0572107 0.517561
162.277 3.42731 -176.65 0.276957 -0.454236 -0.18711 0.825805 164.172 6.20548 -173.305 -0.27694 0.454256 0.187142 -0.825793 4.74307 2.88675 0 0 -0.853897 -0.0574785 0.517259
161.85 3.39853 -176.391 0.27687 -0.454336 -0.187272 0.825743 163.745 6.17668 -173.046 -0.276852 0.454356 0.187304 -0.825731 4.74302 2.77109 0 0 -0.854062 -0.0577463 0.516957
161.423 3.36962 -176.133 0.276783 -0.454435 -0.187433 0.825681 163.318 6.14774 -172.788 -0.276765 0.454455 0.187466 -0.825668 4.74298 2.65788 0 0 -0.854226 -0.0580141 0.516654
160.996 3.34057 -175.875 0.276695 -0.454535 -0.187595 0.825618 162.891 6.11866 -172.53 -0.276678 0.454555 0.187627 -0.825606 4.74294 2.54711 0 0 -0.854391 -0.0582819 0.516352
160.569 3.31139 -175.617 0.276608 -0.454635 -0.187757 0.825556 162.463 6.08946 -172.272 -0.276591 0.454654 0.187789 -0.825544 4.74289 2.43877 0 0 -0.854556 -0.0585497 0.516049
160.142 3.28208 -175.359 0.276521 -0.454734 -0.187918 0.825494 162.036 6.06011 -172.014 -0.276503 0.454754 0.187951 -0.825481 4.74285 2.33286 0 0 -0.85472 -0.0588174 0.515747
159.714 3.25263 -175.101 0.276434 -0.454834 -0.18808 0.825431 161.609 6.03064 -171.756 -0.276416 0.454854 0.188112 -0.825419 4.74281 2.22937 0 0 -0.854884 -0.0590852 0.515444
159.287 3.22305 -174.843 0.276346 -0.454933 -0.188242 0.825369 161.181 6.00103 -171.498 -0.276329 0.454953 0.188274 -0.825356 4.74276 2.12829 0 0 -0.855048 -0.0593529 0.515141
158.859 3.19333 -174.586 0.276259 -0.455033 -0.188403 0.825306 160.754 5.97129 -171.241 -0.276241 0.455053 0.188436 -0.825294 4.74272 2.02962 0 0 -0.855212 -0.0596206 0.514838
158.432 3.16348 -174.328 0.276172 -0.455132 -0.188565 0.825244 160.326 5.94141 -170.983 -0.276154 0.455152 0.188597 -0.825231 4.74268 1.93334 0 0 -0.855375 -0.0598883 0.514535
158.004 3.1335 -174.071 0.276084 -0.455232 -0.188727 0.825181 159.898 5.9114 -170.726 -0.276067 0.455252 0.188759 -0.825169 4.74263 1.83946 0 0 -0.855539 -0.060156 0.514232
157.576 3.10338 -173.814 0.275997 -0.455331 -0.188888 0.825118 159.47 5.88125 -170.469 -0.275979 0.455351 0.18892 -0.825106 4.74259 1.74798 0 0 -0.855702 -0.0604237 0.513929
157.148 3.07312 -173.557 0.275909 -0.455431 -0.18905 0.825056 159.043 5.85097 -170.212 -0.275892 0.455451 0.189082 -0.825043 4.74255 1.65887 0 0 -0.855865 -0.0606914 0.513626
156.72 3.04274 -173.3 0.275822 -0.45553 -0.189211 0.824993 158.615 5.82056 -169.956 -0.275805 0.45555 0.189244 -0.824981 4.7425 1.57214 0 0 -0.856028 -0.060959 0.513322
156.292 3.01222 -173.044 0.275735 -0.45563 -0.189373 0.82493 158.187 5.79001 -169.699 -0.275717 0.455649 0.189405 -0.824918 4.74246 1.48779 0 0 -0.856191 -0.0612267 0.513019
155.864 2.98157 -172.787 0.275647 -0.455729 -0.189534 0.824868 157.758 5.75933 -169.443 -0.27563 0.455749 0.189567 -0.824855 4.74241 1.40581 0 0 -0.856354 -0.0614943 0.512715
155.436 2.95078 -172.531 0.27556 -0.455828 -0.189696 0.824805 157.33 5.72852 -169.186 -0.275542 0.455848 0.189728 -0.824792 4.74237 1.32618 0 0 -0.856516 -0.061762 0.512411
155.008 2.91986 -172.275 0.275472 -0.455928 -0.189858 0.824742 156.902 5.69757 -168.93 -0.275455 0.455947 0.18989 -0.824729 4.74233 1.24892 0 0 -0.856679 -0.0620296 0.512108
154.579 2.8888 -172.019 0.275385 -0.456027 -0.190019 0.824679 156.474 5.66649 -168.674 -0.275367 0.456047 0.190051 -0.824666 4.74228 1.17401 0 0 -0.856841 -0.0622972 0.511804
154.151 2.85761 -171.763 0.275298 -0.456126 -0.190181 0.824616 156.045 5.63528 -168.418 -0.27528 0.456146 0.190213 -0.824603 4.74224 1.10145 0 0 -0.857003 -0.0625648 0.5115
153.722 2.82629 -171.507 0.27521 -0.456225 -0.190342 0.824553 155.617 5.60393 -168.163 -0.275193 0.456245 0.190375 -0.82454 4.7422 1.03124 0 0 -0.857165 -0.0628324 0.511196
153.294 2.79484 -171.252 0.275123 -0.456325 -0.190504 0.82449 155.188 5.57244 -167.907 -0.275105 0.456345 0.190536 -0.824477 4.74215 0.963361 0 0 -0.857326 -0.0630999 0.510891
152.865 2.76324 -170.996 0.275035 -0.456424 -0.190665 0.824427 154.759 5.54083 -167.652 -0.275018 0.456444 0.190698 -0.824414 4.74211 0.897825 0 0 -0.857488 -0.0633675 0.510587
152.436 2.73152 -170.741 0.274947 -0.456523 -0.190827 0.824364 154.33 5.50908 -167.397 -0.27493 0.456543 0.190859 -0.824351 4.74207 0.834621 0 0 -0.857649 -0.063635 0.510283
152.007 2.69966 -170.486 0.27486 -0.456622 -0.190988 0.824301 153.902 5.47719 -167.142 -0.274842 0.456642 0.191021 -0.824288 4.74202 0.773748 0 0 -0.85781 -0.0639026 0.509978
151.578 2.66767 -170.231 0.274772 -0.456721 -0.19115 0.824237 153.473 5.44517 -166.887 -0.274755 0.456741 0.191182 -0.824225 4.74198 0.7152 0 0 -0.857971 -0.0641701 0.509674
151.149 2.63555 -169.976 0.274685 -0.456821 -0.191311 0.824174 153.044 5.41302 -166.632 -0.274667 0.45684 0.191343 -0.824162 4.74194 0.658976 0 0 -0.858132 -0.0644376 0.509369
150.72 2.60329 -169.721 0.274597 -0.45692 -0.191473 0.824111 152.614 5.38074 -166.377 -0.27458 0.45694 0.191505 -0.824098 4.74189 0.60507 0 0 -0.858293 -0.0647051 0.509064
150.291 2.5709 -169.467 0.27451 -0.457019 -0.191634 0.824048 152.185 5.34832 -166.123 -0.274492 0.457039 0.191666 -0.824035 4.74185 0.553481 0 0 -0.858454 -0.0649726 0.508759
149.862 2.53837 -169.213 0.274422 -0.457118 -0.191796 0.823984 151.756 5.31576 -165.868 -0.274405 0.457138 0.191828 -0.823972 4.7418 0.504206 0 0 -0.858614 -0.06524 0.508454
149.433 2.50571 -168.958 0.274334 -0.457217 -0.191957 0.823921 151.327 5.28308 -165.614 -0.274317 0.457237 0.191989 -0.823908 4.74176 0.501253 0 0 -0.858774 -0.0655075 0.508149
149.003 2.47291 -168.704 0.274247 -0.457316 -0.192118 0.823858 150.897 5.25026 -165.36 -0.274229 0.457336 0.192151 -0.823845 4.74172 0.45227 0 0 -0.858934 -0.0657749 0.507844
148.574 2.43999 -168.451 0.274159 -0.457415 -0.19228 0.823794 150.468 5.2173 -165.106 -0.274142 0.457435 0.192312 -0.823781 4.74167 0.405821 0 0 -0.859094 -0.0660424 0.507539
148.144 2.40693 -168.197 0.274072 -0.457514 -0.192441 0.823731 150.038 5.18421 -164.853 -0.274054 0.457534 0.192474 -0.823718 4.74163 0.361903 0 0 -0.859254 -0.0663098 0.507234
147.714 2.37373 -167.943 0.273984 -0.457613 -0.192603 0.823667 149.608 5.15099 -164.599 -0.273966 0.457633 0.192635 -0.823654 4.74159 0.320512 0 0 -0.859413 -0.0665772 0.506928
147.285 2.3404 -167.69 0.273896 -0.457712 -0.192764 0.823603 149.179 5.11764 -164.346 -0.273879 0.457732 0.192796 -0.823591 4.74154 0.281646 0 0 -0.859573 -0.0668446 0.506623
146.855 2.30694 -167.437 0.273809 -0.457811 -0.192925 0.82354 148.749 5.08415 -164.093 -0.273791 0.457831 0.192958 -0.823527 4.7415 0.2453 0 0 -0.859732 -0.067112 0.506317
146.425 2.27334 -167.183 0.273721 -0.45791 -0.193087 0.823476 148.319 5.05052 -163.84 -0.273703 0.45793 0.193119 -0.823463 4.74146 0.211473 0 0 -0.859891 -0.0673794 0.506011
